8337
8337
8337
8300
8373
8337
7099
5497
4550
3968
2512
72
-2548
-6480
-11067
-13507
-13798
-14599
-14235
-12050
-10412
-9975
-9356
-9283
-10048
-10594
-11031
-11504
-11723
-11686
-11686
-11686
-11577
-11468
-11504
-11504
-11359
-11286
-11359
-11286
-11140
-11104
-11286
-11286
-11104
-11140
-11140
-11031
-10922
-10958
-10958
-10813
-10776
-10776
-10776
-10776
-10631
-10376
-10048
-9830
-9684
-9393
-9174
-9138
-9138
-9138
-9101
-9247
-8774
-8191
-8410
-8555
-8701
-8774
-8774
-8956
-9138
-9029
-8992
-9174
-9320
-9356
-9138
-8737
-8628
-9138
-9648
-9502
-9247
-9065
-8956
-9429
-9320
-9029
-8883
-8592
-8446
-8191
-7973
-7827
-7682
-7682
-7682
-7682
-7682
-7682
-7682
-7682
-7682
-7682
-7682
-7682
-7572
-7500
-7500
-7317
-7135
-7354
-7536
-7500
-7500
-7500
-7536
-7427
-7317
-7317
-7172
-7063
-6808
-6553
-6589
-6444
-6407
-6371
-6189
-6043
-5898
-5861
-5861
-5861
-5679
-5351
-5242
-4842
-4368
-4587
-4623
-4514
-5351
-6298
-6043
-6152
-6371
-6480
-6626
-6771
-6626
-6662
-6844
-6990
-7135
-7281
-7463
-7427
-7354
-7682
-7973
-8264
-8555
-8810
-8956
-9101
-9247
-9393
-9538
-9684
-9830
-10048
-10412
-10631
-10594
-10740
-10922
-10958
-10995
-11140
-11140
-11286
-11250
-11140
-11322
-11322
-11322
-11322
-11322
-11322
-11322
-11213
-11104
-11140
-11140
-11140
-11140
-11140
-11140
-11140
-11104
-11395
-11468
-11286
-11322
-11322
-11322
-11250
-11140
-11140
-11140
-11177
-11067
-10958
-11140
-11140
-11140
-11140
-11104
-10958
-10958
-10958
-10958
-10922
-10776
-10776
-10740
-10849
-10958
-10958
-11577
-11650
-11468
-11504
-11504
-11359
-11286
-11359
-11286
-11140
-11104
-11286
-11286
-11104
-11140
-11322
-11213
-11104
-11177
-11322
-11177
-11104
-11140
-11140
-11140
-11140
-11140
-11104
-11213
-11504
-11650
-11905
-12160
-12560
-13143
-12997
-12961
-12888
-12779
-12779
-12597
-12706
-12742
-12597
-12597
-12451
-12415
-12342
-12196
-12233
-12269
-12050
-11723
-11432
-11140
-10849
-10594
-10194
-10121
-10776
-11104
-10084
-10449
-11832
-11504
-11322
-11213
-11067
-10922
-10776
-10594
-10849
-11395
-11432
-10594
-9720
-9975
-9648
-8628
-8592
-8446
-8337
-8082
-7864
-7864
-7682
-7973
-8410
-8628
-8774
-9065
-9393
-9575
-9757
-10048
-10339
-10558
-10594
-10958
-11868
-12378
-12451
-12415
-12415
-12233
-12123
-12851
-12997
-12269
-11868
-11286
-10740
-10521
-10339
-10230
-10849
-10885
-10776
-10995
-11140
-11140
-11140
-11213
-11359
-11322
-11067
-11868
-12160
-11577
-11504
-11359
-11213
-11104
-10849
-10412
-10521
-10703
-10230
-9320
-9502
-11104
-9757
-9211
-10303
-9684
-9393
-8956
-8701
-8118
-7135
-7645
-5533
-2038
1201
4696
7572
10922
13652
13944
11614
8919
10667
9247
4478
3422
1019
-2803
-6007
-8555
-11504
-13143
-12160
-10194
-9247
-9502
-9648
-9793
-9866
-9866
-9866
-9720
-9575
-9356
-9065
-8956
-8956
-8956
-8956
-8956
-8956
-9101
-9174
-9101
-9174
-9320
-9320
-9320
-9320
-9283
-9138
-9138
-9174
-9065
-8919
-8956
-8992
-8774
-8446
-8155
-7864
-7572
-7390
-7245
-7135
-7135
-7135
-7026
-6953
-6953
-6953
-6990
-6844
-7354
-8155
-8046
-8046
-8046
-8046
-8046
-8046
-8046
-8046
-8046
-8046
-8046
-8046
-8009
-8118
-7900
-7135
-7245
-7354
-7317
-7317
-7317
-7317
-7317
-7317
-7317
-7317
-7317
-7281
-6808
-6371
-6589
-6589
-6699
-6771
-6771
-6953
-6917
-5861
-5097
-5133
-5133
-5133
-5024
-4951
-4951
-4769
-4623
-4587
-4587
-4587
-4587
-4696
-5060
-4441
-3932
-4951
-4842
-4733
-4805
-4733
-4587
-4550
-4660
-4405
-3968
-3859
-3859
-3750
-3677
-3640
-3495
-3495
-3385
-3276
-3349
-3495
-3640
-3786
-3932
-4041
-4041
-4186
-4332
-4478
-4623
-4769
-4769
-4878
-5024
-5169
-5133
-4878
-5752
-6262
-6080
-6589
-6735
-6990
-7208
-7354
-7682
-8009
-8082
-8046
-8046
-8046
-8082
-7900
-7900
-8082
-8046
-8046
-8082
-7973
-7864
-8046
-8082
-7936
-7827
-7864
-7864
-7718
-7645
-7791
-7827
-7682
-7682
-7572
-8082
-8883
-8956
-8919
-9065
-9174
-9138
-9138
-9138
-9138
-9138
-9138
-9138
-9138
-9247
-9429
-9502
-9502
-9648
-9684
-9684
-9684
-9684
-9830
-9866
-9866
-9866
-9866
-10048
-9975
-9830
-9902
-10048
-9902
-9830
-9866
-9866
-9866
-9866
-9866
-9902
-9793
-9138
-8555
-10412
-11250
-9648
-8774
-9393
-9356
-9029
-8919
-8774
-8592
-8701
-8701
-8592
-8774
-8774
-8883
-8956
-8992
-9138
-9138
-9247
-9320
-9356
-9684
-9866
-9830
-9975
-10012
-9684
-9684
-9575
-9502
-9502
-9320
-9138
-9138
-9065
-8956
-8956
-8665
-8592
-8555
-8665
-9138
-9283
-9611
-10048
-10266
-10412
-10449
-10194
-9939
-9830
-9684
-9684
-9611
-9393
-9320
-9138
-8446
-8810
-9174
-8919
-8956
-8810
-8737
-8883
-8592
-7682
-7354
-7245
-6990
-6699
-6589
-6553
-5570
-5169
-5861
-6407
-6699
-6953
-7354
-7718
-7864
-8300
-8665
-8919
-9211
-9502
-9793
-9975
-10194
-10449
-10594
-10740
-10813
-10703
-10594
-10594
-10594
-10485
-10376
-10412
-10412
-10266
-10194
-10339
-10376
-10230
-10376
-10449
-10412
-10412
-10412
-10558
-10631
-10558
-10631
-10776
-10776
-10740
-10849
-10958
-10958
-10922
-11067
-11140
-11140
-11140
-10849
-10558
-10194
-9793
-9866
-10776
-10958
-10631
-10339
-10230
-10303
-8300
-6553
-6371
-5315
-2038
1419
4769
8300
11796
14817
14199
12123
10412
8519
7245
5279
2548
-436
-4223
-9101
-11614
-13580
-15000
-13689
-12742
-12123
-11177
-10521
-10776
-10958
-10922
-11104
-10703
-9866
-11213
-11468
-10995
-10922
-10594
-10376
-10740
-11031
-10922
-10958
-11140
-11031
-10958
-10958
-10776
-10594
-10594
-10521
-10412
-10412
-10266
-10121
-10521
-10995
-10776
-10776
-10776
-10849
-10958
-10958
-10958
-10958
-10958
-10958
-10958
-11104
-11140
-11250
-10958
-10048
-10157
-10266
-10230
-10230
-10230
-10230
-10230
-10230
-10230
-10230
-10230
-10121
-10012
-10084
-10230
-10266
-10121
-10048
-10048
-10048
-10048
-9939
-9830
-9866
-9866
-9866
-9793
-10048
-9830
-8592
-8373
-8446
-8337
-8228
-8228
-8228
-8228
-8191
-7973
-7682
-7536
-7390
-7245
-7099
-6953
-6662
-6444
-6407
-6407
-6407
-6262
-6189
-6298
-6407
-6407
-6553
-6662
-7026
-6662
-5133
-5206
-5388
-5279
-5351
-5497
-5497
-5497
-5497
-5533
-5679
-5679
-5643
-5752
-5861
-5861
-5861
-5825
-5934
-6043
-6043
-6043
-6043
-6116
-6262
-6407
-6553
-6662
-6990
-6735
-5497
-5606
-5643
-5388
-5643
-6407
-6589
-6626
-7063
-7572
-7500
-7427
-7936
-8410
-8373
-8410
-9211
-9211
-9393
-9247
-7682
-7463
-8628
-9283
-9101
-9138
-9138
-9138
-9138
-9174
-9320
-9356
-9174
-9174
-9320
-9320
-9320
-9211
-9101
-9138
-9138
-8992
-8956
-8956
-8956
-8956
-8810
-8774
-8774
-8774
-8774
-8919
-9101
-9065
-8919
-8956
-8956
-8956
-8956
-8956
-8956
-9101
-9138
-9138
-9138
-9138
-9138
-9029
-8919
-8956
-8956
-8956
-8956
-8956
-8956
-8956
-8956
-8956
-8956
-8956
-8956
-8919
-9065
-8519
-7791
-8046
-8191
-8337
-8483
-8628
-8774
-8919
-9065
-9174
-9138
-9138
-9283
-9356
-9283
-9356
-9502
-9502
-9466
-9575
-9684
-9684
-9684
-9720
-10194
-10631
-10412
-10558
-10631
-10485
-10412
-10594
-10594
-10594
-10558
-10376
-10230
-10230
-10266
-10157
-10048
-10048
-10048
-9939
-9866
-9866
-9866
-9902
-9502
-9320
-9502
-9502
-9684
-9502
-9247
-9065
-8774
-8919
-8956
-8992
-9174
-9320
-9320
-9393
-9611
-9648
-9320
-8992
-8847
-8118
-7135
-6771
-6626
-6480
-6334
-6225
-6225
-6116
-5788
-5643
-5679
-5679
-6116
-6480
-7208
-7645
-6953
-6516
-7245
-7827
-7900
-8228
-8373
-8555
-8555
-8701
-9502
-10303
-10339
-10266
-10412
-10412
-10558
-10631
-10594
-10594
-10594
-10449
-10412
-10412
-10412
-10412
-10412
-10412
-10412
-10376
-10230
-10230
-10230
-10230
-10230
-10230
-10230
-10376
-10849
-10849
-10230
-10631
-10995
-10230
-9466
-9866
-9975
-10631
-11541
-11614
-10958
-10776
-10885
-10995
-10922
-10958
-11250
-10048
-8410
-6516
-3313
218
4660
8810
12014
14526
15000
12961
10521
9174
8155
5825
2657
1274
-1237
-7864
-11832
-13689
-14526
-14526
-14053
-13944
-13470
-12815
-12305
-11868
-11432
-10995
-11213
-11759
-11686
-11650
-11796
-11322
-10740
-10958
-10958
-11067
-11140
-11177
-11322
-11359
-11104
-10339
-9866
-10230
-10412
-10376
-10558
-10813
-10958
-11322
-9648
-8628
-9247
-9320
-9611
-9830
-9939
-10084
-10230
-10084
-10012
-9502
-8919
-9138
-9138
-9247
-9356
-9320
-9320
-9283
-9466
-9429
-9320
-9502
-9538
-9283
-9101
-9174
-9138
-8847
-8737
-8774
-8774
-8774
-8774
-8774
-8774
-8774
-8774
-8774
-8774
-8774
-8774
-8774
-8919
-8883
-8665
-8592
-8592
-8592
-8483
-8373
-8410
-8410
-8264
-8191
-8264
-8191
-7864
-7682
-7718
-7572
-7245
-7135
-6990
-6844
-6699
-6553
-6407
-6262
-6080
-6043
-5970
-5679
-5679
-5461
-5206
-5097
-4951
-4951
-4987
-4878
-4769
-4769
-4769
-4769
-4769
-4805
-4951
-4987
-4623
-4296
-4223
-4223
-4296
-3640
-3276
-3567
-3677
-3495
-3640
-3458
-3131
-3495
-3786
-4077
-4296
-4478
-4769
-4915
-5169
-5461
-5752
-6043
-6334
-6626
-6917
-7172
-7317
-7463
-7609
-7754
-7900
-8046
-7973
-8519
-8774
-8555
-8592
-8592
-8555
-8665
-8774
-8774
-8774
-8774
-8774
-8774
-8774
-8774
-8774
-8774
-8774
-8774
-8774
-8774
-8774
-8774
-8774
-8919
-8956
-8956
-8956
-8956
-8810
-8774
-8774
-8774
-8774
-8774
-8774
-8774
-8774
-8774
-8592
-8701
-8810
-8774
-8774
-8774
-8665
-8555
-8628
-8774
-8810
-8665
-8592
-8592
-8592
-8774
-8737
-8992
-9356
-9320
-9283
-9429
-8956
-8373
-8592
-8592
-8592
-8592
-8592
-8592
-8592
-8555
-8665
-8774
-8774
-8774
-8774
-8774
-8774
-8774
-8774
-8883
-8956
-8956
-8956
-8919
-9138
-9429
-9466
-9320
-9283
-9429
-9502
-9502
-9502
-9356
-9320
-9320
-9320
-9320
-9466
-9538
-9429
-9320
-9320
-9320
-9320
-9320
-9320
-9320
-9320
-9320
-9320
-9320
-9320
-9356
-9138
-8774
-8555
-8410
-8300
-8009
-7791
-7900
-8046
-7936
-8810
-9502
-8847
-7682
-7791
-7791
-7645
-7718
-7500
-6589
-6298
-6553
-6189
-5133
-5206
-5461
-5570
-5716
-5861
-6007
-6116
-6407
-6881
-7317
-7609
-7900
-8118
-8264
-8410
-8410
-8483
-8701
-8774
-8956
-9575
-9757
-9611
-9793
-10412
-10449
-10266
-10230
-10230
-10230
-10230
-10230
-10266
-10485
-10412
-9466
-9356
-9575
-9466
-9502
-9648
-9684
-9684
-9684
-9684
-9830
-9902
-9830
-9902
-10048
-10048
-10012
-10121
-10266
-10412
-10449
-10339
-10594
-10048
-8592
-9757
-10012
-9538
-9466
-8956
-7900
-7245
-7063
-6553
-4769
-1492
2002
5643
9101
11978
14490
12669
9648
8810
8337
6007
4223
2912
436
-4041
-9283
-11577
-12779
-13725
-12961
-12487
-12123
-11577
-11031
-10594
-9830
-9429
-9138
-8628
-8228
-8665
-8919
-9065
-9393
-9502
-9356
-9356
-9174
-8956
-8956
-8665
-8555
-8665
-8810
-8956
-8956
-9065
-9138
-9138
-9320
-9466
-9502
-9575
-9720
-9684
-9247
-8883
-8628
-8300
-8046
-8191
-8264
-8228
-8228
-8228
-8228
-8228
-8228
-8264
-8410
-8446
-8300
-8228
-8191
-8046
-8046
-7936
-7900
-8082
-8046
-7900
-7864
-7791
-7682
-7682
-7536
-7463
-7572
-7682
-7500
-7354
-7317
-7317
-7281
-7135
-6844
-6553
-6334
-6189
-6043
-5898
-5825
-5934
-6080
-6225
-6516
-6735
-6771
-6152
-5133
-5351
-5752
-5970
-6334
-6589
-6444
-6407
-6298
-6007
-5861
-5570
-5388
-5242
-5133
-5133
-4987
-4842
-5206
-5133
-4041
-3859
-3786
-3567
-3495
-3495
-3349
-3167
-3167
-3349
-3495
-3677
-3640
-3822
-4368
-4769
-4623
-4696
-4769
-4805
-4769
-3822
-2657
-2512
-3021
-3131
-3276
-3313
-3932
-4660
-4587
-5024
-5279
-5461
-5716
-5861
-6152
-6480
-6662
-6844
-7135
-7135
-7354
-7572
-7718
-7864
-7500
-6771
-6662
-7026
-7135
-7427
-7609
-7791
-8191
-8592
-8446
-8483
-8628
-8555
-8410
-8555
-8628
-8519
-8410
-8592
-8628
-8446
-8446
-8628
-8592
-8446
-8264
-8228
-8191
-8046
-8046
-8082
-7973
-7827
-7682
-7682
-7682
-7754
-7864
-7864
-7864
-7754
-7645
-7682
-7682
-7682
-7682
-7682
-7718
-7864
-7864
-7827
-7936
-8046
-8046
-8046
-7936
-7864
-7827
-7682
-7682
-7572
-7500
-7500
-7317
-6917
-6371
-6262
-6407
-6225
-6225
-6225
-6189
-6262
-6589
-7026
-7354
-7682
-7900
-7864
-7864
-7864
-7864
-7864
-7864
-7864
-7864
-7864
-7864
-7864
-8046
-7900
-7463
-7354
-7500
-7172
-7208
-6735
-5970
-6043
-5898
-5898
-6189
-6444
-6589
-6881
-7208
-7317
-7354
-7500
-7500
-7645
-8155
-8337
-7682
-6990
-5861
-5060
-4951
-4587
-3640
-3495
-3786
-3895
-4041
-4186
-4332
-4550
-4842
-5133
-5424
-5716
-5970
-6080
-6225
-6516
-6699
-6844
-6990
-7135
-7026
-6771
-6917
-6771
-5861
-5970
-6080
-6080
-6262
-6407
-6407
-6516
-6589
-6626
-6771
-6771
-6844
-7026
-7172
-7135
-7063
-7572
-7973
-7827
-7682
-7682
-7572
-7427
-7281
-7135
-6808
-6771
-6662
-6334
-6407
-7245
-8082
-8118
-7900
-8046
-7317
-6953
-6844
-6516
-6225
-6080
-5825
-5533
-5242
-4041
-473
2912
5242
8519
12888
13434
11614
10084
8191
5788
6699
5970
3422
1310
-1674
-7390
-9101
-8774
-9247
-9502
-9757
-8919
-8228
-8191
-7864
-7536
-7390
-7208
-6881
-6589
-6589
-6589
-6589
-6589
-6589
-6735
-6771
-6771
-6771
-6771
-6771
-6771
-6771
-6735
-6589
-6589
-6589
-6589
-6626
-6771
-6771
-6771
-6771
-6771
-6771
-6771
-6808
-6699
-6589
-6407
-5643
-5497
-5861
-6116
-6225
-6189
-6444
-6699
-6808
-6771
-6444
-6626
-7245
-6808
-5133
-5024
-5279
-5388
-5533
-5679
-5825
-5898
-5716
-5424
